# MODEL = 5 SUBARCTIC WINTER
# ALT PRES TEMP DENSITY H2O O3 N2O CO CH4
# (KM) (MB) (K) (CM-3) (PPMV) (PPMV) (PPMV) (PPMV) (PPMV)
 0.00 1.013E+03 257.2 2.855E+19 1.41E+03 1.80E-02 3.20E-01 1.50E-01 1.70E+00
 1.00 8.878E+02 259.1 2.484E+19 1.62E+03 2.07E-02 3.20E-01 1.45E-01 1.70E+00
 2.00 7.775E+02 255.9 2.202E+19 1.43E+03 2.34E-02 3.20E-01 1.40E-01 1.70E+00
 3.00 6.798E+02 252.7 1.950E+19 1.17E+03 2.77E-02 3.20E-01 1.35E-01 1.70E+00
 4.00 5.932E+02 247.7 1.736E+19 7.90E+02 3.25E-02 3.20E-01 1.31E-01 1.70E+00
 5.00 5.158E+02 240.9 1.552E+19 4.31E+02 3.80E-02 3.20E-01 1.30E-01 1.69E+00
 6.00 4.467E+02 234.1 1.383E+19 2.37E+02 4.45E-02 3.20E-01 1.29E-01 1.67E+00
 7.00 3.853E+02 227.3 1.229E+19 1.47E+02 7.25E-02 3.20E-01 1.25E-01 1.65E+00
 8.00 3.308E+02 220.6 1.087E+19 3.38E+01 1.04E-01 3.20E-01 1.19E-01 1.63E+00
 9.00 2.829E+02 217.2 9.440E+18 2.98E+01 2.10E-01 3.16E-01 1.09E-01 1.62E+00
10.00 2.418E+02 217.2 8.069E+18 2.00E+01 3.00E-01 3.10E-01 9.96E-02 1.58E+00
11.00 2.067E+02 217.2 6.898E+18 1.00E+01 3.50E-01 2.99E-01 8.96E-02 1.54E+00
12.00 1.766E+02 217.2 5.893E+18 6.00E+00 4.00E-01 2.94E-01 7.81E-02 1.51E+00
13.00 1.510E+02 217.2 5.039E+18 4.45E+00 6.50E-01 2.86E-01 6.37E-02 1.47E+00
14.00 1.291E+02 217.2 4.308E+18 4.50E+00 9.00E-01 2.80E-01 5.03E-02 1.43E+00
15.00 1.103E+02 217.2 3.681E+18 4.55E+00 1.20E+00 2.72E-01 3.94E-02 1.39E+00
16.00 9.431E+01 216.6 3.156E+18 4.60E+00 1.50E+00 2.61E-01 3.07E-02 1.34E+00
17.00 8.058E+01 216.0 2.704E+18 4.65E+00 1.90E+00 2.42E-01 2.49E-02 1.29E+00
18.00 6.882E+01 215.4 2.316E+18 4.70E+00 2.45E+00 2.17E-01 1.97E-02 1.23E+00
19.00 5.875E+01 214.8 1.982E+18 4.75E+00 3.10E+00 1.84E-01 1.55E-02 1.16E+00
20.00 5.014E+01 214.2 1.697E+18 4.80E+00 3.70E+00 1.62E-01 1.33E-02 1.08E+00
21.00 4.277E+01 213.6 1.451E+18 4.85E+00 4.00E+00 1.36E-01 1.23E-02 1.01E+00
22.00 3.647E+01 213.0 1.241E+18 4.90E+00 4.20E+00 1.23E-01 1.23E-02 9.56E-01
23.00 3.109E+01 212.4 1.061E+18 4.95E+00 4.50E+00 1.12E-01 1.31E-02 9.01E-01
24.00 2.649E+01 211.8 9.065E+17 5.00E+00 4.60E+00 1.04E-01 1.40E-02 8.48E-01
25.00 2.256E+01 211.2 7.742E+17 5.00E+00 4.70E+00 9.57E-02 1.52E-02 7.96E-01
27.50 1.513E+01 213.6 5.134E+17 5.00E+00 4.90E+00 8.60E-02 1.72E-02 7.45E-01
30.00 1.020E+01 216.0 3.423E+17 5.00E+00 5.40E+00 7.31E-02 2.04E-02 6.94E-01
32.50 6.910E+00 218.5 2.292E+17 5.00E+00 5.90E+00 5.71E-02 2.49E-02 6.43E-01
35.00 4.701E+00 222.3 1.533E+17 5.00E+00 6.20E+00 4.67E-02 3.17E-02 5.88E-01
37.50 3.230E+00 228.5 1.025E+17 5.00E+00 6.25E+00 3.44E-02 4.43E-02 5.24E-01
40.00 2.243E+00 234.7 6.927E+16 5.00E+00 5.90E+00 2.47E-02 6.47E-02 4.51E-01
42.50 1.570E+00 240.8 4.726E+16 5.00E+00 5.10E+00 1.63E-02 1.04E-01 3.71E-01
45.00 1.113E+00 247.0 3.266E+16 5.00E+00 4.10E+00 1.07E-02 1.51E-01 3.00E-01
47.50 7.900E-01 253.2 2.261E+16 5.00E+00 3.00E+00 7.06E-03 2.16E-01 2.45E-01
50.00 5.719E-01 259.3 1.599E+16 4.95E+00 2.60E+00 3.97E-03 3.14E-01 1.98E-01
55.00 2.990E-01 259.1 8.364E+15 4.85E+00 1.60E+00 2.51E-03 4.84E-01 1.59E-01
60.00 1.550E-01 250.9 4.478E+15 4.50E+00 9.50E-01 1.73E-03 7.15E-01 1.50E-01
65.00 7.900E-02 248.4 2.305E+15 4.00E+00 6.50E-01 1.26E-03 1.07E+00 1.50E-01
70.00 4.000E-02 245.4 1.181E+15 3.30E+00 5.00E-01 9.60E-04 1.52E+00 1.50E-01
75.00 2.000E-02 234.7 6.176E+14 2.70E+00 3.30E-01 7.55E-04 2.17E+00 1.50E-01
80.00 9.660E-03 223.9 3.127E+14 2.00E+00 1.30E-01 6.10E-04 3.06E+00 1.50E-01
85.00 4.500E-03 213.1 1.531E+14 1.33E+00 7.50E-01 5.02E-04 4.56E+00 1.50E-01
90.00 2.022E-03 202.3 7.244E+13 8.50E-01 8.00E-01 4.21E-04 6.88E+00 1.40E-01
95.00 9.070E-04 211.0 3.116E+13 5.40E-01 8.00E-01 3.58E-04 1.06E+01 1.30E-01
100.0 4.230E-04 218.5 1.403E+13 4.00E-01 4.00E-01 3.08E-04 1.71E+01 1.20E-01
105.0 2.070E-04 234.0 6.412E+12 3.40E-01 2.00E-01 2.68E-04 2.47E+01 1.10E-01
110.0 1.080E-04 252.6 3.099E+12 2.80E-01 5.00E-02 2.35E-04 3.36E+01 9.50E-02
115.0 6.000E-05 288.5 1.507E+12 2.40E-01 5.00E-03 2.08E-04 4.15E+01 6.00E-02
120.0 3.590E-05 333.0 7.814E+11 2.00E-01 5.00E-04 1.85E-04 5.00E+01 3.00E-02
